n,M(n),M_total,omega,f
1,8.9894116997959860240932249842176257060832020681282e-28,8.9894116997959860240932249842176257060832020681282e-28,181808740199811.10174561295574301812830622955058257,28935759700110.119735469626981820258874053683499991
2,5.2156942827897747524344631653208967997116374270863e-28,1.4205105982585760776527688149538522505794839495214e-27,144629922590158.00631128100215544274104839351382504,23018567099221.825154115805025335766565492442080208
3,2.5311613480451855055372007014913826421009280580093e-28,1.6736267330630946282064888851029905147895767553224e-27,133245052032721.83580104619706491093984177322773145,21206608673544.476707860227954670461355544129053169
4,9.1908187410644896739399191055475411719230804445372e-29,1.7655349204737395249458880761584659265088075597677e-27,129730543324182.37550068234180786993881179429793096,20647257240040.908332671155944727417948058596261303
5,4.7448704607112503635420767908039222341884199050224e-30,1.7702797909344507753094301529492698487429959796728e-27,129556568665890.04347972317608660397621943912003538,20619568313200.960292899274450035254771391514044575
6,-3.319522058109770718340705894587742093770302738733e-29,1.7370845703533530681260230940033924278052929522854e-27,130788606195773.8902940326920299521370139332415279,20815653176156.703231739979311039347059044936494584
7,-4.047051274004211433703341512450702462113081114885e-29,1.6966140576133109537889896788788854031841621411366e-27,132339308899580.91395904253882391696906112647929077,21062455176733.558311788334917795638106747231272423
8,-3.1284571957337797584735003241044957810710757287856e-29,1.6653294856559731562042546756378404453734513838487e-27,133576576068180.01362297120376437354932625617897233,21259372362541.418490546451123664946591615269105651
9,-1.6122800987129624652186353369514563335074220854209e-29,1.6492066846688435315520683222683258820383771629945e-27,134227916687098.63535996868221403406471297065811175,21363036441678.851619612285106035592070665086713242
10,-1.9561401234476417361274229130703923916751739656825e-30,1.6472505445453958898159408993552554896467019890288e-27,134307592092088.14440087989476826537428985942229652,21375717176225.780644710526538201788057675302176355
11,7.4831074723484804594883079068041972208139503428055e-30,1.6547336520177443702754292072620596868675159393717e-27,134003562202474.53091744713745374129378202919233939,21327329316446.090769940934926151459517394141112973
12,1.1167595048656491531388901648714397282960192541277e-29,1.6659012470664008618068181089107740841504761319129e-27,133553651394237.98589703458062553699571760026384693,21255723787364.774811911293428362065551544210065184
13,1.0000368241553920708214498036689333697644193219107e-29,1.675901615307954782515032606947463417848120325132e-27,133154587373734.47503826764984560389172916724227296,21192210775891.515587726910664843036388699464839532
14,5.927502014289288490256985854483927660831794690545e-30,1.6818291173222440710052895928019473455089521198226e-27,132919732731905.98143909495244649172661902423536524,21154832498736.434227007004810435164663418134660548
15,1.1036003532398653396785404964207871148394772382495e-30,1.6829327176754839363449681332983681326237915970608e-27,132876143847230.65515989998273288734209061743113222,21147895112276.493484342297059428431858736099150694
16,-2.744502263153139029714236136636348013756192267286e-30,1.6801882154123307973152538971617317846100354047935e-27,132984622788623.42380586040612313730135986728731609,21165160072020.528627545456962362298767316303240004
17,-4.6694513076906787137937996983332386468470689343917e-30,1.6755187641046401186014600974633985459631883358591e-27,133169799224333.71676461114461339699531250970750031,21194631817107.960318644814587156865218375467638736
18,-4.5590491273280378248935127936266032931878920088018e-30,1.6709597149773120807765665846697719426700004438503e-27,133351345821020.44036839679186240598751559548541952,21223525855372.163088122298445401247592348450494844
19,-2.9531769089705596143992988776730341570812966060344e-30,1.6680065380683415211621672857920989085129191472443e-27,133469341749663.19440838531257927051604957978604183,21242305490680.375950201678312252964664358146853147
20,-7.2457966378288441664775586437161995883461032206927e-31,1.6672819584045586367455195299277272885540845369222e-27,133498340643767.33025734557508765151961217076985705,21246920808021.247590417831368597522023489397738458
21,1.2606210629313560719525598411489169474737595732108e-30,1.6685425794674899928174720897688762055015582964955e-27,133447900630718.81858228498278955987631390859643844,21238893030614.957256603448421160104863494800501538
22,2.4047934598875941286831694008755451641987929559183e-30,1.6709473729273775869461552591697517506657570894514e-27,133351838303894.6774910943454183949231579757334538,21223604236455.986030432800033189581692447888780023
23,2.5052956440495741190768018844264541194976068929829e-30,1.6734526685714271610652320610541782047852546963444e-27,133251981607009.81036494095825101845236759809734885,21207711549545.930360718277375421710181686662571063
24,1.7363876966849427491086671836751863338963930888564e-30,1.6751890562681121038143407282378533911191510894332e-27,133182903705290.68675403358350022026434305483910927,21196717460028.915703441671151508366063935868121019
25,5.1997891993073771508831438689102505392468032905505e-31,1.6757090351880428415294290426247444161730757697623e-27,133162238519952.77393486610982869552947887468704475,21193428493632.476718822748859671251836088815659353
26,-6.5534460935658486113394819156720781784882139344187e-31,1.6750536905786862566682950944331772083552269483688e-27,133188285034696.68637003014492562066908093266395323,21197573925204.286315256273075891473765219555345998
27,-1.4028648038185880050801258794634834651004834737566e-30,1.6736508257748676686632149685537137248901264648951e-27,133244092977781.12540144398889489253918161785696783,21206456035209.965943156233901615525287323586511411
28,-1.5443975796722044392224860310445390506049023322806e-30,1.6721064281951954642239924825226691858395215625628e-27,133305612494989.73390381575462995922991547346752205,21216247170470.342905150752343110934324037509592998
29,-1.1325552709139769270375959552751026086936351196816e-30,1.6709738729242814872969548865673940832308279274431e-27,133350780885412.47015033342783053264725901121975291,21223435943077.626002773343950844920770972141552888
30,-3.9552996248174701571562045071867744851811393449694e-31,1.6705783429617997402812392661166754057823098135086e-27,133366566169589.96696335793769302712686417813173298,21225948249082.584903922639793411785561955583503195
31,3.6582059471758599043080530082896840275909548723386e-31,1.6709441635565173262716700714175043741850689089958e-27,133351966367808.43556422813350592149676389894655384,21223624618460.89232195455258313749900219603543811
32,8.884669661274441578284883932659493865278868696622e-31,1.6718326305226447704294985598107703235715967958655e-27,133316527843672.18744656202729590964566663432488209,21217984402168.726993478891944028824426548937921548
33,1.0287356423928735312442061632806978140747355394026e-30,1.6728613661650376439607427659740510213856715314049e-27,133275529659938.40713341394547859962690688827752597,21211459338569.706118705156701341697284656735829313
34,7.9279440954549200605622338059243249892642916751437e-31,1.6736541605745831359667989893546434538845979605724e-27,133243960231543.83267922008241343527426466092792602,21206434907990.123956716325161693532732331291571142
35,3.1343689341980881935026276086949895881180674533482e-31,1.6739675974680029447861492521155129528434097673178e-27,133231485220623.38199725715033411084346596578670464,21204449448337.008855576948271381190034307776707081
36,-2.1185073575654408243620526677467209957214819280159e-31,1.673755746732246400703713046848738280743837619125e-27,133239916646520.32025024059154955844552954404242116,21205791351445.819595818857040676066301541213971697
37,-5.9602288669775834004422801383766915048556710146459e-31,1.6731597238455486423636688188349006115933520520235e-27,133263646290359.93498196749586822431123161158515784,21209568041560.704423177130208981657370812811907972
38,-7.2430948687498369894491230961727030974372493626973e-31,1.6724354143586736586647239065252833412836083270872e-27,133292500521103.21875351997887976903400070722232917,21214160335012.612168693897574902519890112176306297
39,-5.8396487747535522434360015097701792893184447424081e-31,1.671851449481198303440380306374306323354676482613e-27,133315777512273.7198507308520209433553354286362637,21217864983217.703821021234089683574379889249325998
40,-2.5601661698192006194725703127927290077606604620344e-31,1.6715954328642163833784330493430270504539004165668e-27,133325986246673.56710608329781655791461493924620019,21219489753760.151785231008362799267765949971731384
41,1.2363176063790826718832728588317905080608415288335e-31,1.6717190646248542916456213766289102295047065007197e-27,133321056102747.44558855230260033236786777476457596,21218705096984.155061665809458707514564168849898729
42,4.1708068713729496768874730473945771682077538549433e-31,1.6721361453119915866133101239336496872215272761052e-27,133304427939513.17669312417505638931809940174931495,21216058642610.882249323639910503543585474254935977
43,5.3187384161070722427195482351037254910316623016602e-31,1.6726680191536022938375820787571600597706304423353e-27,133283232228663.74415956708026691329468227304635744,21212685240456.848545897646126882494791827871294659
44,4.4755668599372711903078492399747113517611809132332e-31,1.6731155758395960209566128636811575309058065604266e-27,133265404472975.88195114173783266944312658767776352,21209847865014.890622728914907042077440621613124494
45,2.1463857548920474614598302924238009382971628442404e-31,1.6733302144150852257027588467103999109996362767111e-27,133256857201896.89396319471753756502546195738613636,21208487524572.723286663810934387745940251138216221
46,-7.0630748555073021693564290501378606823954076178443e-32,1.6732595836665301526810652824198985323928123226349e-27,133259669656205.93013526106333547014475024315059958,21208935140578.226494447031915084224185814961981693
47,-3.0425476512893658096926890621521009765963806825113e-31,1.6729553289014012161000960135136833222951526845666e-27,133271786849510.16938819298746181312093855455201708,21210863651788.996187953044418550269968480873978749
48,-4.1058035296140265274343544657682156902707449199032e-31,1.6725447485484398134473525780671065007261256100746e-27,133288143786931.25699118500378106998282893236461686,21213466939233.407078661706870239538512835808860549
49,-3.6421598422675854706971025811438249006150990406286e-31,1.6721805325642130549002828678089921182360641001706e-27,133302658675843.19689117081976066726194211177056278,21215777055552.172056053585878301442018256383072814
50,-1.9235482473704009900741115456755465100931523830132e-31,1.6719881777394760148012754566544245635850547849323e-27,133310326395163.15214867964298377506870920823171116,21216997410984.18416146644180583323719762765670536
51,3.9808434719349123142887499675342960699122308558268e-32,1.6720279861741953639244183441540999065457539072408e-27,133308739428001.97826133343888491490572957099363808,21216744837315.958824732638004558617932929952304553
52,2.5241924580177377241975534613418099266334257970657e-31,1.6722804054199971376968380995002340875384172498205e-27,133298678028834.27499467813236987121321972561350517,21215143515903.998168232378036182569915862905705016
53,3.7455186195664147787757395821098301924799258478357e-31,1.6726549572819537791747156734584450705576652424053e-27,133283752636374.23701540541391990920571218364196613,21212768065916.396619911795793681342988838062990308
54,3.6320444971325779112059724014461990407820101563606e-31,1.673018161731667036965836270698589690461743443421e-27,133269284210154.96789112538986513722129388258380499,21210465344364.839556049881591573060282476286817354
55,2.1633722950999678512865871486120873264014825777376e-31,1.6732344989611770337509649294134508991943835916787e-27,133260668549971.99349694862211984151059247963600181,21209094119458.719157788833554671562728595021757251
56,-2.1867502856641718252372112099715858416896845393749e-32,1.6732126314583203920327125573013511833359666948333e-27,133261539350393.38717319633672907495694648683616476,21209232711650.230466809710684535191974921678499512
57,-2.6858188742516491197311621415135770829104765933071e-31,1.672944049570895227120739441087199825627675647174e-27,133272236121557.7448063282872283989663329840083495,21210935155656.160832920232736159179807026284887591
58,-4.2762967264164944057924104518339423949180565135871e-31,1.6725164198982535776801602000420164313881838415227e-27,133289272582190.2557225144463768446857823067736638,21213646592578.615423002856633318743521526611753276
59,-4.288238266216650983140693873908878895452314983569e-31,1.6720875960716319125818461306546255434986386100243e-27,133306363179554.24062442550284910562744267890276174,21216366645629.486936502625609546778532362192405084
60,-2.6439279761056441119404899498692458788049150211741e-31,1.6718232032740213481706520816596386189107581185222e-27,133316903722616.6185291793958222688382351507370335,21218044225160.737364122094470590418133867618556038
61,4.3459609590406686927604606196163774029511639835338e-34,1.6718236378701172522375213577057005805484984136386e-27,133316886394529.99240611231707231032563113535706073,21218041467310.096492072703827080802240372899014728
62,2.5466680058452522291312628132393432845927792405674e-31,1.6720783046707017774604344839870245148769576915626e-27,133306733557287.9621771876509776372215191870495992,21216425593076.619895396558447814352049406170600007
63,3.9574896161742947798103569667959934923666776218449e-31,1.6724740536323192069384155196837041142261943593248e-27,133290960779682.7867033778256531980672521516551301,21213915277554.467071663322174959839287821816050129
64,4.0930141024589144950003603287644773510751602014684e-31,1.672883355042565098387915555716580561961301875345e-27,133274653750413.56470402200943702666016088765487976,21211319933239.126172771413037502485645046409378255
65,2.4844665596402534641732076277923092783750436426406e-31,1.6731318016985291237343328764793597928891393797092e-27,133264758274363.78734864550730771310467327409737808,21209745019311.556644519587859958954982724670601131
66,1.6702132685648949703148768713484643993182319003613e-32,1.6731485038312147726840360252480732775331325620282e-27,133264093117856.54886210511639077602767541820040688,21209639156365.499899326274137692077299579866697867
67,-2.012184920312891054946429620367724410185767286899e-31,1.6729472853391834835785413822860365050921139852996e-27,133272107235762.10477290631119395259782715164947273,21210914642844.690389748973864843181337175247218575
68,-2.5924906377676665239864178963024049008489468211916e-31,1.6726880362754067169261427404964062646020290906174e-27,133282434723504.96632573543462982519843462069442328,21212558313568.68776680016378791721664264984258843
69,-2.6283944495966343652487568226535398213111769500618e-31,1.6724251968304470534896178648141409106198979729224e-27,133292907689629.77691052663086787522364401467218394,21214225137896.285343046938906194532939736928851697
70,-1.8896614164551487353950433105320882069903310689166e-31,1.6722362306888015386160783604830877017991989398155e-27,133300438663568.48977891408617256750492088398599962,21215423729624.927736487275589221014591493804112961
71,-1.9303987104854333119256011035397826767454705178775e-32,1.6722169267016966842829591044720523039724314851104e-27,133301208068088.22585747552814870614709045613989645,21215546184157.480979132448652624848072654780177856
72,1.2056677883040118126322533678477443268182741589672e-31,1.6723374934805270854642223298088370784051133125262e-27,133296402821833.99241574151060995578996091928405443,21214781405463.3459124865923169637974832506518224
73,1.8500172080488085024270450914615864482091923260443e-31,1.6725224952013319663144650343179832370499342317589e-27,133289030500703.84284399408385609288353234817909337,21213608064113.421779888005070044895152882378908212
74,1.6118455927285978263157022879269919126452868052263e-31,1.6726836797606048260970966045467759362411987604394e-27,133282608290847.2727916516934696276474871411360106,21212585937669.175163900797171808613401835208514553
75,1.5805139893765616190427689021432247756572853463096e-31,1.672841731159542482259000881436990258718764488974e-27,133276311819430.74570334047045065500080547031941287,21211583823119.198049547687570008092662981585562838
76,2.2493105081611674889170672258931673324446633885243e-32,1.6728642242646240939338900521092491903920889356079e-27,133275415808828.02446232103325223439390191178735888,21211441218602.712215593160232442042375706894110282
77,-7.96969315673478584011434854970628489416025991653e-32,1.6727845273330567460754889086237521275431473330087e-27,133278590609589.96936909964043325557564198694773715,21211946503837.30766318266800717462524107758633468
78,-1.7140631344055886100847912698123955907321446537613e-31,1.6726131210196161872144804294967708879840741185433e-27,133285419506944.29320825351625951938223393608734292,21213033356607.115468422051113727727937895773748278
79,-1.2255422368793638693019793957040642547060413358331e-31,1.6724905667959282508275502315572004815586035144098e-27,133290302760761.88519608946845925520370487143515171,21213810550590.557601892551078615681296985845183985
80,-1.4334873106212662581137607001773065373119296360568e-31,1.6723472180648661242017388554871827509048723214462e-27,133296015266551.88984454599794998347179652845164779,21214719724124.477914325039237461933896432820285496
81,-3.0003016989204994380944783261613192583421904574736e-32,1.6723172150478769192073579107039211377122888995416e-27,133297210992050.92903625473424516493995899171137367,21214910029748.231025032430857745436912285269512348
82,5.3423134842706206413489962741165984272572897611515e-32,1.6723706381827196254137714006666623036965614724392e-27,133295081915043.16672545717064409899759431668656631,21214571176618.222351653390210385557714191494548603
83,1.6250921940423812209514385375525835270754954235876e-31,1.6725331474021238635358665445204175620492690219816e-27,133288606047598.34247876955674082962431142152251229,21213540510303.570691013568173307154160418353891547
84,1.0982172494677659103507073453025530686602646243357e-31,1.672642969127070640126901615254947817356135048444e-27,133284230270704.01651916149095881847579383718908645,21212844083780.971412401772353967351882087502753096
85,1.2094762797835946395995439613997630335244639752948e-31,1.6727639167550489995908615696510877936594874948415e-27,133279411687896.23359161958124660218765635509261334,21212077182508.415135327415200791307386034962782267
86,3.9405813519889004344183832660999528957965219455104e-32,1.672803322568568888595205753483748793188445460061e-27,133277841863607.13751808526064272929394888817175132,21211827337213.019774692391963606336611906552494888
87,-3.5763779583517853251755177610050366860983316981117e-32,1.672767558788985370741953998306138742821584476744e-27,133279266596487.07439636577319853818770086424963618,21212054090493.447280705107645623853768817758463416
88,-1.4196594863667323282366466188371025518927987340548e-31,1.6726255928403486975091303336442550325663951968706e-27,133284922589115.16146026567310291064257517665395797,21212954269678.298656900797964653695762956295996079
89,-1.1284323994114010151297155580943917260418332591715e-31,1.6725127496004075574076173620884455933937910135447e-27,133289418832513.84277030768382175328407724303181176,21213669869040.54309087251995430645174641282240713
90,-9.4332860629197984807348413431701323779583668924467e-32,1.6724184167397783594228100136750138920700114298757e-27,133293177878320.18858618591521623703045493526656586,21214268139761.93188701345312999857414752665645331
